#X		#Y		#Wave		#Intensity
-25.231383	-10.462500	401.581055	1085.583008
-25.231383	-10.462500	402.838867	1123.359619
-25.231383	-10.462500	404.095703	1117.599976
-25.231383	-10.462500	405.352539	1070.070068
-25.231383	-10.462500	406.609375	1191.617310
-25.231383	-10.462500	407.866211	1106.279785
-25.231383	-10.462500	409.122070	1074.643311
-25.231383	-10.462500	410.377930	1182.326782
-25.231383	-10.462500	411.633789	1216.390381
-25.231383	-10.462500	412.889648	1200.687378
-25.231383	-10.462500	414.144531	1242.734131
-25.231383	-10.462500	415.400391	1167.272827
-25.231383	-10.462500	416.655273	1207.337646
-25.231383	-10.462500	417.909180	1249.410400
-25.231383	-10.462500	419.164063	1217.756348
-25.231383	-10.462500	420.417969	1267.821411
-25.231383	-10.462500	421.671875	1248.122681
-25.231383	-10.462500	422.925781	1246.364380
-25.231383	-10.462500	424.178711	1250.589600
-25.231383	-10.462500	425.431641	1262.796509
-25.231383	-10.462500	426.684570	1304.938232
-25.231383	-10.462500	427.937500	1315.165161
-25.231383	-10.462500	429.190430	1317.412109
-25.231383	-10.462500	430.442383	1377.557739
-25.231383	-10.462500	431.694336	1317.916260
-25.231383	-10.462500	432.946289	1250.263306
-25.231383	-10.462500	434.197266	1306.436523
-25.231383	-10.462500	435.449219	1324.669922
-25.231383	-10.462500	436.700195	1298.946411
-25.231383	-10.462500	437.950195	1349.166382
-25.231383	-10.462500	439.201172	1417.398560
-25.231383	-10.462500	440.451172	1447.666260
-25.231383	-10.462500	441.701172	1421.948242
-25.231383	-10.462500	442.951172	1390.219604
-25.231383	-10.462500	444.201172	1464.516479
-25.231383	-10.462500	445.450195	1482.812012
-25.231383	-10.462500	446.699219	1507.119507
-25.231383	-10.462500	447.948242	1459.369385
-25.231383	-10.462500	449.196289	1555.764404
-25.231383	-10.462500	450.445313	1584.107178
-25.231383	-10.462500	451.693359	1522.323853
-25.231383	-10.462500	452.940430	1546.665039
-25.231383	-10.462500	454.188477	1528.935547
-25.231383	-10.462500	455.435547	1585.356445
-25.231383	-10.462500	456.682617	1547.581909
-25.231383	-10.462500	457.929688	1559.918823
-25.231383	-10.462500	459.176758	1556.217529
-25.231383	-10.462500	460.422852	1516.410156
-25.231383	-10.462500	461.668945	1552.824219
-25.231383	-10.462500	462.915039	1579.219971
-25.231383	-10.462500	464.160156	1617.668823
-25.231383	-10.462500	465.405273	1634.051758
-25.231383	-10.462500	466.650391	1630.363281
-25.231383	-10.462500	467.895508	1630.690063
-25.231383	-10.462500	469.140625	1608.922485
-25.231383	-10.462500	470.384766	1625.318359
-25.231383	-10.462500	471.628906	1583.447144
-25.231383	-10.462500	472.873047	1646.072021
-25.231383	-10.462500	474.116211	1598.158081
-25.231383	-10.462500	475.359375	1678.907959
-25.231383	-10.462500	476.602539	1616.904541
-25.231383	-10.462500	477.845703	1639.358643
-25.231383	-10.462500	479.087891	1633.655762
-25.231383	-10.462500	480.331055	1654.110962
-25.231383	-10.462500	481.572266	1658.473022
-25.231383	-10.462500	482.814453	1610.496216
-25.231383	-10.462500	484.056641	1717.541992
-25.231383	-10.462500	485.297852	1713.865112
-25.231383	-10.462500	486.539063	1669.900024
-25.231383	-10.462500	487.779297	1712.552246
-25.231383	-10.462500	489.020508	1710.888306
-25.231383	-10.462500	490.260742	1826.128662
-25.231383	-10.462500	491.500000	1735.783813
-25.231383	-10.462500	492.740234	1778.486084
-25.231383	-10.462500	493.979492	1857.509521
-25.231383	-10.462500	495.218750	1813.513306
-25.231383	-10.462500	496.458008	1852.223755
-25.231383	-10.462500	497.697266	1858.661255
-25.231383	-10.462500	498.935547	1850.972290
-25.231383	-10.462500	500.173828	1835.204712
-25.231383	-10.462500	501.412109	1888.088867
-25.231383	-10.462500	502.649414	1860.204590
-25.231383	-10.462500	503.886719	1923.217529
-25.231383	-10.462500	505.124023	1986.257080
-25.231383	-10.462500	506.361328	1950.292847
-25.231383	-10.462500	507.597656	2003.257813
-25.231383	-10.462500	508.834961	2038.048462
-25.231383	-10.462500	510.070313	2036.452759
-25.231383	-10.462500	511.306641	2069.242920
-25.231383	-10.462500	512.541992	2089.908447
-25.231383	-10.462500	513.778320	2157.125000
-25.231383	-10.462500	515.012695	2066.498779
-25.231383	-10.462500	516.248047	2064.909180
-25.231383	-10.462500	517.482422	2083.567627
-25.231383	-10.462500	518.716797	2175.144287
-25.231383	-10.462500	519.951172	2181.680664
-25.231383	-10.462500	521.184570	2186.193848
-25.231383	-10.462500	522.418945	2188.682861
-25.231383	-10.462500	523.652344	2148.606689
-25.231383	-10.462500	524.884766	2258.542480
-25.231383	-10.462500	526.118164	2206.297607
-25.231383	-10.462500	527.350586	2275.727783
-25.231383	-10.462500	528.583008	2266.067871
-25.231383	-10.462500	529.814453	2227.996338
-25.231383	-10.462500	531.046875	2212.234375
-25.231383	-10.462500	532.278320	2178.196045
-25.231383	-10.462500	533.509766	2280.182617
-25.231383	-10.462500	534.740234	2309.102051
-25.231383	-10.462500	535.971680	2372.566162
-25.231383	-10.462500	537.202148	2427.930908
-25.231383	-10.462500	538.431641	2383.743164
-25.231383	-10.462500	539.662109	2420.841309
-25.231383	-10.462500	540.891602	2419.327637
-25.231383	-10.462500	542.121094	2403.579346
-25.231383	-10.462500	543.349609	2393.926514
-25.231383	-10.462500	544.579102	2426.991211
-25.231383	-10.462500	545.807617	2386.817871
-25.231383	-10.462500	547.036133	2411.755371
-25.231383	-10.462500	548.263672	2377.668945
-25.231383	-10.462500	549.492188	2394.471436
-25.231383	-10.462500	550.719727	2462.195068
-25.231383	-10.462500	551.946289	2385.321777
-25.231383	-10.462500	553.173828	2334.902100
-25.231383	-10.462500	554.400391	2345.597168
-25.231383	-10.462500	555.626953	2362.412354
-25.231383	-10.462500	556.853516	2424.087891
-25.231383	-10.462500	558.079102	2361.398926
-25.231383	-10.462500	559.304688	2392.506836
-25.231383	-10.462500	560.530273	2354.265381
-25.231383	-10.462500	561.755859	2316.007568
-25.231383	-10.462500	562.980469	2328.758057
-25.231383	-10.462500	564.205078	2384.384277
-25.231383	-10.462500	565.429688	2344.066895
-25.231383	-10.462500	566.653320	2358.875000
-25.231383	-10.462500	567.876953	2351.219238
-25.231383	-10.462500	569.100586	2380.338379
-25.231383	-10.462500	570.324219	2339.986084
-25.231383	-10.462500	571.546875	2358.895508
-25.231383	-10.462500	572.769531	2363.501465
-25.231383	-10.462500	573.992188	2366.064697
-25.231383	-10.462500	575.214844	2366.583984
-25.231383	-10.462500	576.436523	2326.185547
-25.231383	-10.462500	577.658203	2431.060547
-25.231383	-10.462500	578.879883	2364.050781
-25.231383	-10.462500	580.100586	2335.909424
-25.231383	-10.462500	581.322266	2363.043945
-25.231383	-10.462500	582.541992	2425.009033
-25.231383	-10.462500	583.762695	2345.648438
-25.231383	-10.462500	584.982422	2346.165771
-25.231383	-10.462500	586.203125	2395.872070
-25.231383	-10.462500	587.421875	2423.050781
-25.231383	-10.462500	588.641602	2476.896973
-25.231383	-10.462500	589.860352	2491.801025
-25.231383	-10.462500	591.079102	2480.044434
-25.231383	-10.462500	592.297852	2447.765381
-25.231383	-10.462500	593.515625	2450.360107
-25.231383	-10.462500	594.733398	2481.693604
-25.231383	-10.462500	595.951172	2476.084717
-25.231383	-10.462500	597.168945	2497.170410
-25.231383	-10.462500	598.385742	2606.589844
-25.231383	-10.462500	599.602539	2453.081055
-25.231383	-10.462500	600.819336	2539.935059
-25.231383	-10.462500	602.035156	2507.613525
-25.231383	-10.462500	603.251953	2512.283691
-25.231383	-10.462500	604.467773	2494.336182
-25.231383	-10.462500	605.682617	2515.460205
-25.231383	-10.462500	606.898438	2509.849365
-25.231383	-10.462500	608.113281	2592.717773
-25.231383	-10.462500	609.328125	2593.296631
-25.231383	-10.462500	610.541992	2565.054932
-25.231383	-10.462500	611.755859	2582.100830
-25.231383	-10.462500	612.969727	2611.511963
-25.231383	-10.462500	614.183594	2669.776611
-25.231383	-10.462500	615.397461	2690.978760
-25.231383	-10.462500	616.610352	2584.412842
-25.231383	-10.462500	617.823242	2725.166748
-25.231383	-10.462500	619.035156	2659.798096
-25.231383	-10.462500	620.247070	2654.207520
-25.231383	-10.462500	621.458984	2679.556396
-25.231383	-10.462500	622.670898	2717.296387
-25.231383	-10.462500	623.882813	2732.352539
-25.231383	-10.462500	625.093750	2737.094971
-25.231383	-10.462500	626.304688	2686.094238
-25.231383	-10.462500	627.515625	2697.023682
-25.231383	-10.462500	628.725586	2722.417236
-25.231383	-10.462500	629.935547	2665.181152
-25.231383	-10.462500	631.145508	2713.310547
-25.231383	-10.462500	632.354492	2687.051270
-25.231383	-10.462500	633.564453	2772.421387
-25.231383	-10.462500	634.773438	2797.861328
-25.231383	-10.462500	635.981445	2823.312500
-25.231383	-10.462500	637.190430	2867.395020
-25.231383	-10.462500	638.398438	2870.111572
-25.231383	-10.462500	639.606445	2885.248047
-25.231383	-10.462500	640.813477	2954.217285
-25.231383	-10.462500	642.021484	2981.803955
-25.231383	-10.462500	643.228516	2986.620605
-25.231383	-10.462500	644.434570	2974.866211
-25.231383	-10.462500	645.641602	3056.351318
-25.231383	-10.462500	646.847656	3162.744141
-25.231383	-10.462500	648.053711	3173.825439
-25.231383	-10.462500	649.258789	3186.985352
-25.231383	-10.462500	650.464844	3270.666504
-25.231383	-10.462500	651.669922	3229.918701
-25.231383	-10.462500	652.875000	3326.097412
-25.231383	-10.462500	654.079102	3382.887451
-25.231383	-10.462500	655.283203	3443.854736
-25.231383	-10.462500	656.487305	3440.483643
-25.231383	-10.462500	657.691406	3364.423096
-25.231383	-10.462500	658.894531	3437.891602
-25.231383	-10.462500	660.097656	3519.704834
-25.231383	-10.462500	661.300781	3503.878906
-25.231383	-10.462500	662.503906	3485.967041
-25.231383	-10.462500	663.706055	3490.917969
-25.231383	-10.462500	664.908203	3516.667480
-25.231383	-10.462500	666.110352	3469.625000
-25.231383	-10.462500	667.311523	3480.817627
-25.231383	-10.462500	668.512695	3525.312012
-25.231383	-10.462500	669.713867	3549.011475
-25.231383	-10.462500	670.915039	3562.311768
-25.231383	-10.462500	672.115234	3363.205322
-25.231383	-10.462500	673.315430	3407.713623
-25.231383	-10.462500	674.515625	3345.987549
-25.231383	-10.462500	675.714844	3398.847900
-25.231383	-10.462500	676.915039	3326.669678
-25.231383	-10.462500	678.113281	3339.937744
-25.231383	-10.462500	679.312500	3317.760986
-25.231383	-10.462500	680.510742	3276.802002
-25.231383	-10.462500	681.708984	3258.773438
-25.231383	-10.462500	682.907227	3217.782227
-25.231383	-10.462500	684.105469	3195.557373
-25.231383	-10.462500	685.302734	3150.357666
-25.231383	-10.462500	686.500000	3138.548096
-25.231383	-10.462500	687.697266	3011.856689
-25.231383	-10.462500	688.893555	3096.110840
-25.231383	-10.462500	690.089844	3130.252441
-25.231383	-10.462500	691.286133	3124.697754
-25.231383	-10.462500	692.481445	3064.785645
-25.231383	-10.462500	693.677734	2998.572754
-25.231383	-10.462500	694.873047	3005.533447
-25.231383	-10.462500	696.067383	2989.484863
-25.231383	-10.462500	697.262695	3000.631592
-25.231383	-10.462500	698.457031	2833.880615
-25.231383	-10.462500	699.651367	2941.295410
-25.231383	-10.462500	700.844727	2937.780762
-25.231383	-10.462500	702.039063	2886.093506
-25.231383	-10.462500	703.232422	2826.002686
-25.231383	-10.462500	704.424805	2837.126709
-25.231383	-10.462500	705.618164	2795.859863
-25.231383	-10.462500	706.810547	2809.078369
-25.231383	-10.462500	708.002930	2855.851807
-25.231383	-10.462500	709.195313	2783.101318
-25.231383	-10.462500	710.386719	2785.836914
-25.231383	-10.462500	711.578125	2841.030029
-25.231383	-10.462500	712.769531	2728.349854
-25.231383	-10.462500	713.959961	2779.356689
-25.231383	-10.462500	715.151367	2813.589111
-25.231383	-10.462500	716.340820	2799.533203
-25.231383	-10.462500	717.531250	2837.987061
-25.231383	-10.462500	718.721680	2762.997070
-25.231383	-10.462500	719.911133	2799.358398
-25.231383	-10.462500	721.099609	2907.208008
-25.231383	-10.462500	722.289063	2939.413818
-25.231383	-10.462500	723.477539	2982.149658
-25.231383	-10.462500	724.666016	3106.943604
-25.231383	-10.462500	725.854492	3198.130127
-25.231383	-10.462500	727.041992	3417.733643
-25.231383	-10.462500	728.230469	3521.663086
-25.231383	-10.462500	729.416992	3524.577148
-25.231383	-10.462500	730.604492	3552.763916
-25.231383	-10.462500	731.791016	3469.321533
-25.231383	-10.462500	732.977539	3307.884277
-25.231383	-10.462500	734.164063	3287.569580
-25.231383	-10.462500	735.350586	3037.484375
-25.231383	-10.462500	736.536133	2896.920166
-25.231383	-10.462500	737.721680	2887.041016
-25.231383	-10.462500	738.906250	2735.830811
-25.231383	-10.462500	740.091797	2795.534424
-25.231383	-10.462500	741.276367	2823.610596
-25.231383	-10.462500	742.460938	2769.378174
-25.231383	-10.462500	743.644531	2751.012695
-25.231383	-10.462500	744.828125	2755.868164
-25.231383	-10.462500	746.011719	2695.245605
-25.231383	-10.462500	747.195313	2759.247070
-25.231383	-10.462500	748.377930	2690.144043
-25.231383	-10.462500	749.561523	2743.604980
-25.231383	-10.462500	750.743164	2687.151611
-25.231383	-10.462500	751.925781	2812.535645
-25.231383	-10.462500	753.107422	2762.417480
-25.231383	-10.462500	754.289063	2693.235107
-25.231383	-10.462500	755.470703	2693.853760
-25.231383	-10.462500	756.652344	2635.206787
-25.231383	-10.462500	757.833008	2635.812012
-25.231383	-10.462500	759.013672	2695.710449
-25.231383	-10.462500	760.193359	2622.196533
-25.231383	-10.462500	761.374023	2675.763184
-25.231383	-10.462500	762.553711	2587.376953
-25.231383	-10.462500	763.733398	2611.286133
-25.231383	-10.462500	764.912109	2614.005859
-25.231383	-10.462500	766.090820	2646.414063
-25.231383	-10.462500	767.269531	2617.327637
-25.231383	-10.462500	768.448242	2639.143555
-25.231383	-10.462500	769.625977	2684.311279
-25.231383	-10.462500	770.804688	2617.008545
-25.231383	-10.462500	771.981445	2568.781250
-25.231383	-10.462500	773.159180	2575.741455
-25.231383	-10.462500	774.335938	2601.819824
-25.231383	-10.462500	775.512695	2564.177490
-25.231383	-10.462500	776.689453	2592.389893
-25.231383	-10.462500	777.866211	2522.846924
-25.231383	-10.462500	779.041992	2616.964844
-25.231383	-10.462500	780.217773	2451.708252
-25.231383	-10.462500	781.392578	2590.516846
-25.231383	-10.462500	782.568359	2508.144531
-25.231383	-10.462500	783.743164	2564.043945
-25.231383	-10.462500	784.917969	2473.114014
-25.231383	-10.462500	786.091797	2520.515381
-25.231383	-10.462500	787.266602	2527.481445
-25.231383	-10.462500	788.440430	2487.594971
-25.231383	-10.462500	789.613281	2464.732422
-25.231383	-10.462500	790.787109	2548.397461
-25.231383	-10.462500	791.959961	2598.000732
-25.231383	-10.462500	793.132813	2594.332764
-25.231383	-10.462500	794.304688	2518.167236
-25.231383	-10.462500	795.477539	2631.778564
-25.231383	-10.462500	796.649414	2632.381836
-25.231383	-10.462500	797.821289	2658.589355
-25.231383	-10.462500	798.992188	2614.380615
-25.231383	-10.462500	800.163086	2672.615723
-25.231383	-10.462500	801.333984	2628.389648
-25.231383	-10.462500	802.504883	2688.790039
-25.231383	-10.462500	803.674805	2687.269531
-25.231383	-10.462500	804.845703	2666.518555
-25.231383	-10.462500	806.014648	2603.015381
-25.231383	-10.462500	807.184570	2637.813232
-25.231383	-10.462500	808.353516	2595.654785
-25.231383	-10.462500	809.522461	2662.545166
-25.231383	-10.462500	810.691406	2631.068359
-25.231383	-10.462500	811.860352	2668.042969
-25.231383	-10.462500	813.028320	2647.252686
-25.231383	-10.462500	814.196289	2643.577148
-25.231383	-10.462500	815.364258	2680.579346
-25.231383	-10.462500	816.531250	2520.577637
-25.231383	-10.462500	817.698242	2540.432129
-25.231383	-10.462500	818.865234	2603.145508
-25.231383	-10.462500	820.032227	2608.026367
-25.231383	-10.462500	821.198242	2561.465576
-25.231383	-10.462500	822.364258	2577.058838
-25.231383	-10.462500	823.530273	2648.414795
-25.231383	-10.462500	824.695313	2629.715088
-25.231383	-10.462500	825.860352	2589.552002
-25.231383	-10.462500	827.025391	2557.954346
-25.231383	-10.462500	828.190430	2631.516602
-25.231383	-10.462500	829.354492	2589.178955
-25.231383	-10.462500	830.519531	2548.968994
-25.231383	-10.462500	831.682617	2609.691650
-25.231383	-10.462500	832.846680	2588.802979
-25.231383	-10.462500	834.009766	2593.691162
-25.231383	-10.462500	835.172852	2566.340820
-25.231383	-10.462500	836.335938	2571.225586
-25.231383	-10.462500	837.499023	2612.668213
-25.231383	-10.462500	838.661133	2628.319336
-25.231383	-10.462500	839.823242	2525.654785
-25.231383	-10.462500	840.985352	2612.302490
-25.231383	-10.462500	842.146484	2548.328369
-25.231383	-10.462500	843.307617	2622.103516
-25.231383	-10.462500	844.468750	2568.868408
-25.231383	-10.462500	845.629883	2586.683350
-25.231383	-10.462500	846.790039	2587.271973
-25.231383	-10.462500	847.950195	2583.551025
-25.231383	-10.462500	849.110352	2610.001465
-25.231383	-10.462500	850.269531	2595.504883
-25.231383	-10.462500	851.429688	2632.750732
-25.231383	-10.462500	852.588867	2579.431396
-25.231383	-10.462500	853.747070	2474.314453
-25.231383	-10.462500	854.906250	2500.769043
-25.231383	-10.462500	856.064453	2520.760742
-25.231383	-10.462500	857.222656	2454.414307
-25.231383	-10.462500	858.380859	2476.563232
-25.231383	-10.462500	859.538086	2462.007568
-25.231383	-10.462500	860.695313	2499.288818
-25.231383	-10.462500	861.852539	2495.534668
-25.231383	-10.462500	863.008789	2457.200439
-25.231383	-10.462500	864.166016	2442.626221
-25.231383	-10.462500	865.322266	2460.477051
-25.231383	-10.462500	866.478516	2402.644531
-25.231383	-10.462500	867.633789	2370.742676
-25.231383	-10.462500	868.789063	2386.424805
-25.231383	-10.462500	869.944336	2454.051270
-25.231383	-10.462500	871.099609	2385.341309
-25.231383	-10.462500	872.253906	2398.871582
-25.231383	-10.462500	873.408203	2444.890625
-25.231383	-10.462500	874.562500	2406.455322
-25.231383	-10.462500	875.716797	2439.497559
-25.231383	-10.462500	876.870117	2489.890381
-25.231383	-10.462500	878.023438	2434.098389
-25.231383	-10.462500	879.176758	2373.944824
-25.231383	-10.462500	880.330078	2552.296387
-25.231383	-10.462500	881.482422	2429.241943
-25.231383	-10.462500	882.634766	2492.704834
-25.231383	-10.462500	883.787109	2493.267578
-25.231383	-10.462500	884.938477	2511.193848
-25.231383	-10.462500	886.090820	2500.905762
-25.231383	-10.462500	887.242188	2510.155762
-25.231383	-10.462500	888.392578	2586.738525
-25.231383	-10.462500	889.543945	2582.977051
-25.231383	-10.462500	890.694336	2613.979492
-25.231383	-10.462500	891.844727	2610.221924
-25.231383	-10.462500	892.994141	2619.505371
-25.231383	-10.462500	894.144531	2624.444092
-25.231383	-10.462500	895.293945	2696.804688
-25.231383	-10.462500	896.443359	2666.957275
-25.231383	-10.462500	897.591797	2652.326660
-25.231383	-10.462500	898.740234	2742.152100
-25.231383	-10.462500	899.889648	2701.409424
-25.231383	-10.462500	901.037109	2732.499023
-25.231383	-10.462500	902.185547	2804.979736
-25.231383	-10.462500	903.333008	2742.440430
-25.231383	-10.462500	904.480469	2810.597900
-25.231383	-10.462500	905.627930	2867.889404
-25.231383	-10.462500	906.774414	2848.915771
-25.231383	-10.462500	907.920898	2864.816650
-25.231383	-10.462500	909.067383	2861.098145
-25.231383	-10.462500	910.213867	2859.558594
-25.231383	-10.462500	911.359375	2862.381592
-25.231383	-10.462500	912.505859	2932.853027
-25.231383	-10.462500	913.650391	2913.866211
-25.231383	-10.462500	914.795898	2877.405273
-25.231383	-10.462500	915.940430	2939.191895
-25.231383	-10.462500	917.084961	2824.090576
-25.231383	-10.462500	918.229492	2756.999268
-25.231383	-10.462500	919.374023	2740.135254
-25.231383	-10.462500	920.517578	2729.820313
-25.231383	-10.462500	921.661133	2806.943848
-25.231383	-10.462500	922.804688	2761.653076
-25.231383	-10.462500	923.947266	2606.988281
-25.231383	-10.462500	925.090820	2609.758301
-25.231383	-10.462500	926.233398	2700.051025
-25.231383	-10.462500	927.375000	2571.530273
-25.231383	-10.462500	928.517578	2574.293213
-25.231383	-10.462500	929.659180	2515.750977
-25.231383	-10.462500	930.800781	2483.461914
-25.231383	-10.462500	931.942383	2484.015869
-25.231383	-10.462500	933.083008	2596.309326
-25.231383	-10.462500	934.223633	2478.548828
-25.231383	-10.462500	935.364258	2424.302002
-25.231383	-10.462500	936.504883	2486.230225
-25.231383	-10.462500	937.644531	2486.783936
-25.231383	-10.462500	938.784180	2546.559570
-25.231383	-10.462500	939.923828	2512.023682
-25.231383	-10.462500	941.063477	2508.193604
-25.231383	-10.462500	942.202148	2469.243408
-25.231383	-10.462500	943.340820	2537.848633
-25.231383	-10.462500	944.479492	2577.937988
-25.231383	-10.462500	945.618164	2527.994629
-25.231383	-10.462500	946.755859	2539.540283
-25.231383	-10.462500	947.893555	2526.919922
-25.231383	-10.462500	949.031250	2525.282959
-25.231383	-10.462500	950.167969	2561.015869
-25.231383	-10.462500	951.305664	2554.987549
-25.231383	-10.462500	952.442383	2526.963379
-25.231383	-10.462500	953.579102	2529.723145
-25.231383	-10.462500	954.714844	2578.688965
-25.231383	-10.462500	955.850586	2632.077637
-25.231383	-10.462500	956.986328	2515.995605
-25.231383	-10.462500	958.122070	2573.796875
-25.231383	-10.462500	959.256836	2596.388184
-25.231383	-10.462500	960.392578	2546.300781
-25.231383	-10.462500	961.527344	2579.911377
-25.231383	-10.462500	962.661133	2655.406006
-25.231383	-10.462500	963.795898	2552.397949
-25.231383	-10.462500	964.929688	2577.212646
-25.231383	-10.462500	966.063477	2553.525391
-25.231383	-10.462500	967.197266	2509.976807
-25.231383	-10.462500	968.330078	2532.591553
-25.231383	-10.462500	969.462891	2475.779297
-25.231383	-10.462500	970.595703	2524.880615
-25.231383	-10.462500	971.728516	2463.625732
-25.231383	-10.462500	972.860352	2532.617676
-25.231383	-10.462500	973.992188	2550.843750
-25.231383	-10.462500	975.124023	2478.508301
-25.231383	-10.462500	976.255859	2534.291260
-25.231383	-10.462500	977.386719	2519.378906
-25.231383	-10.462500	978.517578	2491.197021
-25.231383	-10.462500	979.648438	2469.635498
-25.231383	-10.462500	980.779297	2479.024170
-25.231383	-10.462500	981.909180	2466.297363
-25.231383	-10.462500	983.039063	2455.777100
-25.231383	-10.462500	984.168945	2516.064697
-25.231383	-10.462500	985.298828	2445.788818
-25.231383	-10.462500	986.427734	2448.539307
-25.231383	-10.462500	987.556641	2511.078369
-25.231383	-10.462500	988.685547	2478.406494
-25.231383	-10.462500	989.814453	2485.595947
-25.231383	-10.462500	990.942383	2444.040283
-25.231383	-10.462500	992.070313	2508.848389
-25.231383	-10.462500	993.198242	2502.747559
-25.231383	-10.462500	994.325195	2549.858154
-25.231383	-10.462500	995.453125	2545.980713
-25.231383	-10.462500	996.580078	2562.065430
-25.231383	-10.462500	997.707031	2549.313477
-25.231383	-10.462500	998.833008	2667.488770
-25.231383	-10.462500	999.959961	2772.397461
-25.231383	-10.462500	1001.085938	2757.461914
-25.231383	-10.462500	1002.210938	2715.871582
-25.231383	-10.462500	1003.336914	2714.243408
-25.231383	-10.462500	1004.461914	2770.376709
-25.231383	-10.462500	1005.586914	2766.537109
-25.231383	-10.462500	1006.711914	2720.465820
-25.231383	-10.462500	1007.836914	2765.520752
-25.231383	-10.462500	1008.960938	2721.652344
-25.231383	-10.462500	1010.084961	2679.988281
-25.231383	-10.462500	1011.208984	2778.451904
-25.231383	-10.462500	1012.332031	2739.006348
-25.231383	-10.462500	1013.456055	2737.377197
-25.231383	-10.462500	1014.579102	2746.876953
-25.231383	-10.462500	1015.702148	2720.756836
-25.231383	-10.462500	1016.824219	2788.157227
-25.231383	-10.462500	1017.946289	2793.218262
-25.231383	-10.462500	1019.068359	2818.332764
-25.231383	-10.462500	1020.190430	2765.462891
-25.231383	-10.462500	1021.312500	2799.497070
-25.231383	-10.462500	1022.433594	2775.581787
-25.231383	-10.462500	1023.554688	2744.966064
-25.231383	-10.462500	1024.675781	2669.729736
-25.231383	-10.462500	1025.795898	2835.390381
-25.231383	-10.462500	1026.916992	2789.147461
-25.231383	-10.462500	1028.037109	2901.342285
-25.231383	-10.462500	1029.157227	2841.699219
-25.231383	-10.462500	1030.276367	2898.134033
-25.231383	-10.462500	1031.395508	2836.230469
-25.231383	-10.462500	1032.515625	2881.519287
-25.231383	-10.462500	1033.633789	2848.629395
-25.231383	-10.462500	1034.752930	2847.010986
-25.231383	-10.462500	1035.871094	2843.156494
-25.231383	-10.462500	1036.989258	2707.395264
-25.231383	-10.462500	1038.107422	2768.356445
-25.231383	-10.462500	1039.225586	2883.022949
-25.231383	-10.462500	1040.342773	2899.305664
-25.231383	-10.462500	1041.459961	2797.001953
-25.231383	-10.462500	1042.577148	2849.081543
-25.231383	-10.462500	1043.694336	2847.457764
-25.231383	-10.462500	1044.810547	2794.334961
-25.231383	-10.462500	1045.926758	2797.177002
-25.231383	-10.462500	1047.042969	2735.059570
-25.231383	-10.462500	1048.158203	2646.029053
-25.231383	-10.462500	1049.274414	2729.515381
-25.231383	-10.462500	1050.389648	2613.547119
-25.231383	-10.462500	1051.504883	2663.432617
-25.231383	-10.462500	1052.619141	2625.884766
-25.231383	-10.462500	1053.734375	2606.263428
-25.231383	-10.462500	1054.848633	2640.475098
-25.231383	-10.462500	1055.962891	2569.238770
-25.231383	-10.462500	1057.076172	2457.573242
-25.231383	-10.462500	1058.190430	2507.487793
-25.231383	-10.462500	1059.303711	2539.461182
-25.231383	-10.462500	1060.416992	2495.090576
-25.231383	-10.462500	1061.530273	2504.611328
-25.231383	-10.462500	1062.642578	2392.810547
-25.231383	-10.462500	1063.754883	2386.582275
-25.231383	-10.462500	1064.867188	2519.710449
-25.231383	-10.462500	1065.979492	2468.541992
-25.231383	-10.462500	1067.090820	2527.537354
-25.231383	-10.462500	1068.202148	2469.600342
-25.231383	-10.462500	1069.313477	2578.113281
-25.231383	-10.462500	1070.424805	2463.908203
-25.231383	-10.462500	1071.535156	2392.415771
-25.231383	-10.462500	1072.646484	2435.699219
-25.231383	-10.462500	1073.756836	2497.013428
-25.231383	-10.462500	1074.866211	2445.750000
-25.231383	-10.462500	1075.976563	2403.474609
-25.231383	-10.462500	1077.085938	2428.771973
-25.231383	-10.462500	1078.195313	2375.206787
-25.231383	-10.462500	1079.304688	2425.302490
-25.231383	-10.462500	1080.413086	2353.677246
-25.231383	-10.462500	1081.522461	2302.315918
-25.231383	-10.462500	1082.630859	2302.807617
-25.231383	-10.462500	1083.738281	2404.815918
-25.231383	-10.462500	1084.846680	2373.739502
-25.231383	-10.462500	1085.954102	2403.585449
-25.231383	-10.462500	1087.061523	2334.119873
-25.231383	-10.462500	1088.168945	2257.850586
-25.231383	-10.462500	1089.276367	2280.915283
-25.231383	-10.462500	1090.382813	2328.836670
-25.231383	-10.462500	1091.489258	2308.999268
-25.231383	-10.462500	1092.595703	2347.907227
-25.231383	-10.462500	1093.702148	2380.051025
-25.231383	-10.462500	1094.807617	2249.434814
-25.231383	-10.462500	1095.913086	2295.138184
-25.231383	-10.462500	1097.018555	2345.384033
-25.231383	-10.462500	1098.124023	2305.163818
-25.231383	-10.462500	1099.228516	2258.138184
-25.231383	-10.462500	1100.333008	2358.196777
-25.231383	-10.462500	1101.437500	2234.198730
-25.231383	-10.462500	1102.541992	2336.558350
-25.231383	-10.462500	1103.645508	2339.319580
-25.231383	-10.462500	1104.750000	2280.924805
-25.231383	-10.462500	1105.853516	2274.612549
-25.231383	-10.462500	1106.956055	2297.755859
-25.231383	-10.462500	1108.059570	2307.309814
-25.231383	-10.462500	1109.162109	2239.789795
-25.231383	-10.462500	1110.264648	2272.009521
-25.231383	-10.462500	1111.367188	2410.836914
-25.231383	-10.462500	1112.468750	2243.483887
-25.231383	-10.462500	1113.571289	2352.867676
-25.231383	-10.462500	1114.672852	2394.215820
-25.231383	-10.462500	1115.774414	2353.865479
-25.231383	-10.462500	1116.875000	2313.497803
-25.231383	-10.462500	1117.975586	2313.988037
-25.231383	-10.462500	1119.077148	2432.586914
-25.231383	-10.462500	1120.176758	2419.471191
-25.231383	-10.462500	1121.277344	2390.443848
-25.231383	-10.462500	1122.376953	2404.586426
-25.231383	-10.462500	1123.477539	2350.537598
-25.231383	-10.462500	1124.576172	2423.794189
-25.231383	-10.462500	1125.675781	2458.420166
-25.231383	-10.462500	1126.775391	2431.643799
-25.231383	-10.462500	1127.874023	2413.956787
-25.231383	-10.462500	1128.972656	2391.710693
-25.231383	-10.462500	1130.070313	2455.947998
-25.231383	-10.462500	1131.168945	2429.147705
-25.231383	-10.462500	1132.266602	2377.287842
-25.231383	-10.462500	1133.364258	2393.733154
-25.231383	-10.462500	1134.461914	2430.687744
-25.231383	-10.462500	1135.558594	2385.630371
-25.231383	-10.462500	1136.656250	2356.506836
-25.231383	-10.462500	1137.752930	2413.991943
-25.231383	-10.462500	1138.849609	2425.901367
-25.231383	-10.462500	1139.945313	2385.364990
-25.231383	-10.462500	1141.041016	2392.711182
-25.231383	-10.462500	1142.137695	2379.527588
-25.231383	-10.462500	1143.232422	2359.492432
-25.231383	-10.462500	1144.328125	2437.591309
-25.231383	-10.462500	1145.422852	2381.033447
-25.231383	-10.462500	1146.518555	2351.852051
-25.231383	-10.462500	1147.613281	2356.915527
-25.231383	-10.462500	1148.707031	2293.451416
-25.231383	-10.462500	1149.801758	2346.485107
-25.231383	-10.462500	1150.895508	2278.421387
-25.231383	-10.462500	1151.989258	2320.044922
-25.231383	-10.462500	1153.083008	2240.515381
-25.231383	-10.462500	1154.175781	2291.295166
-25.231383	-10.462500	1155.268555	2218.587158
-25.231383	-10.462500	1156.361328	2351.740234
-25.231383	-10.462500	1157.454102	2290.454834
-25.231383	-10.462500	1158.546875	2309.246338
-25.231383	-10.462500	1159.638672	2312.021484
-25.231383	-10.462500	1160.730469	2264.426270
-25.231383	-10.462500	1161.822266	2214.520752
-25.231383	-10.462500	1162.914063	2290.575684
-25.231383	-10.462500	1164.004883	2277.311523
-25.231383	-10.462500	1165.095703	2332.787598
-25.231383	-10.462500	1166.186523	2285.145752
-25.231383	-10.462500	1167.277344	2336.061523
-25.231383	-10.462500	1168.367188	2393.877441
-25.231383	-10.462500	1169.457031	2460.891602
-25.231383	-10.462500	1170.546875	2436.175537
-25.231383	-10.462500	1171.636719	2530.759521
-25.231383	-10.462500	1172.726563	2512.932373
-25.231383	-10.462500	1173.815430	2433.121582
-25.231383	-10.462500	1174.904297	2422.153564
-25.231383	-10.462500	1175.993164	2452.515625
-25.231383	-10.462500	1177.081055	2448.437256
-25.231383	-10.462500	1178.169922	2497.195801
-25.231383	-10.462500	1179.257813	2410.403809
-25.231383	-10.462500	1180.345703	2408.611816
-25.231383	-10.462500	1181.432617	2393.026611
-25.231383	-10.462500	1182.520508	2359.040527
-25.231383	-10.462500	1183.607422	2352.636963
-25.231383	-10.462500	1184.694336	2295.625488
-25.231383	-10.462500	1185.781250	2309.912109
-25.231383	-10.462500	1186.867188	2287.385254
-25.231383	-10.462500	1187.953125	2299.374268
-25.231383	-10.462500	1189.039063	2299.857178
-25.231383	-10.462500	1190.125000	2304.945557
-25.231383	-10.462500	1191.210938	2351.492188
-25.231383	-10.462500	1192.295898	2338.164307
-25.231383	-10.462500	1193.380859	2368.608643
-25.231383	-10.462500	1194.465820	2396.760986
-25.231383	-10.462500	1195.549805	2406.484619
-25.231383	-10.462500	1196.634766	2330.906982
-25.231383	-10.462500	1197.718750	2331.396484
-25.231383	-10.462500	1198.802734	2359.564209
-25.231383	-10.462500	1199.885742	2383.129639
-25.231383	-10.462500	1200.969727	2360.555420
-25.231383	-10.462500	1202.052734	2342.587402
-25.231383	-10.462500	1203.135742	2359.238525
-25.231383	-10.462500	1204.218750	2398.985840
-25.231383	-10.462500	1205.300781	2424.893311
-25.231383	-10.462500	1206.383789	2434.642090
-25.231383	-10.462500	1207.465820	2370.462402
-25.231383	-10.462500	1208.546875	2345.540771
-25.231383	-10.462500	1209.628906	2424.619629
-25.231383	-10.462500	1210.709961	2464.430420
-25.231383	-10.462500	1211.791016	2372.454590
-25.231383	-10.462500	1212.872070	2421.522217
-25.231383	-10.462500	1213.953125	2463.670166
-25.231383	-10.462500	1215.033203	2357.753418
-25.231383	-10.462500	1216.113281	2311.963135
-25.231383	-10.462500	1217.193359	2363.373535
-25.231383	-10.462500	1218.273438	2361.554932
-25.231383	-10.462500	1219.353516	2276.368896
-25.231383	-10.462500	1220.432617	2300.009521
-25.231383	-10.462500	1221.511719	2284.275635
-25.231383	-10.462500	1222.590820	2273.169922
-25.231383	-10.462500	1223.668945	2368.672607
-25.231383	-10.462500	1224.748047	2327.443359
-25.231383	-10.462500	1225.826172	2409.085693
-25.231383	-10.462500	1226.903320	2428.145264
-25.231383	-10.462500	1227.981445	2291.797363
-25.231383	-10.462500	1229.059570	2368.843262
-25.231383	-10.462500	1230.136719	2378.623779
-25.231383	-10.462500	1231.213867	2413.940430
-25.231383	-10.462500	1232.290039	2342.479004
-25.231383	-10.462500	1233.367188	2366.192383
-25.231383	-10.462500	1234.443359	2401.528564
-25.231383	-10.462500	1235.519531	2262.650879
-25.231383	-10.462500	1236.595703	2339.803711
-25.231383	-10.462500	1237.670898	2356.564453
-25.231383	-10.462500	1238.747070	2319.868164
-25.231383	-10.462500	1239.822266	2290.131348
-25.231383	-10.462500	1240.896484	2323.170410
-25.231383	-10.462500	1241.971680	2235.272217
-25.231383	-10.462500	1243.045898	2349.740234
-25.231383	-10.462500	1244.121094	2308.349609
-25.231383	-10.462500	1245.195313	2355.385010
-25.231383	-10.462500	1246.268555	2360.537109
-25.231383	-10.462500	1247.342773	2386.647461
-25.231383	-10.462500	1248.416016	2424.413086
-25.231383	-10.462500	1249.489258	2350.382813
-25.231383	-10.462500	1250.562500	2367.187744
-25.231383	-10.462500	1251.634766	2372.347656
-25.231383	-10.462500	1252.707031	2405.480469
-25.231383	-10.462500	1253.780273	2389.668213
-25.231383	-10.462500	1254.851563	2439.141846
-25.231383	-10.462500	1255.923828	2465.312500
-25.231383	-10.462500	1256.995117	2437.838623
-25.231383	-10.462500	1258.066406	2506.020508
-25.231383	-10.462500	1259.137695	2434.200439
-25.231383	-10.462500	1260.208984	2395.030762
-25.231383	-10.462500	1261.279297	2453.907471
-25.231383	-10.462500	1262.350586	2391.372314
-25.231383	-10.462500	1263.420898	2501.661133
-25.231383	-10.462500	1264.490234	2546.579834
-25.231383	-10.462500	1265.560547	2528.423828
-25.231383	-10.462500	1266.629883	2615.438721
-25.231383	-10.462500	1267.699219	2487.413330
-25.231383	-10.462500	1268.768555	2583.809570
-25.231383	-10.462500	1269.837891	2546.935791
-25.231383	-10.462500	1270.906250	2566.189209
-25.231383	-10.462500	1271.974609	2636.925781
-25.231383	-10.462500	1273.042969	2656.206543
-25.231383	-10.462500	1274.111328	2666.132324
-25.231383	-10.462500	1275.178711	2598.800781
-25.231383	-10.462500	1276.246094	2636.819824
-25.231383	-10.462500	1277.313477	2560.084717
-25.231383	-10.462500	1278.380859	2593.426270
-25.231383	-10.462500	1279.447266	2678.333496
-25.231383	-10.462500	1280.514648	2608.589355
-25.231383	-10.462500	1281.581055	2599.766357
-25.231383	-10.462500	1282.647461	2621.421143
-25.231383	-10.462500	1283.712891	2659.501709
-25.231383	-10.462500	1284.778320	2669.449951
-25.231383	-10.462500	1285.844727	2719.288330
-25.231383	-10.462500	1286.909180	2691.705566
-25.231383	-10.462500	1287.974609	2692.278320
-25.231383	-10.462500	1289.040039	2765.630859
-25.231383	-10.462500	1290.104492	2803.791260
-25.231383	-10.462500	1291.168945	2748.018555
-25.231383	-10.462500	1292.232422	2828.477783
-25.231383	-10.462500	1293.296875	2829.080566
-25.231383	-10.462500	1294.360352	2822.632813
-25.231383	-10.462500	1295.423828	2792.675293
-25.231383	-10.462500	1296.487305	2739.192383
-25.231383	-10.462500	1297.549805	2793.866943
-25.231383	-10.462500	1298.613281	2716.839355
-25.231383	-10.462500	1299.675781	2703.302979
-25.231383	-10.462500	1300.738281	2659.168945
-25.231383	-10.462500	1301.799805	2704.458496
-25.231383	-10.462500	1302.862305	2665.014404
-25.231383	-10.462500	1303.923828	2576.103516
-25.231383	-10.462500	1304.985352	2609.628418
-25.231383	-10.462500	1306.046875	2567.783447
-25.231383	-10.462500	1307.107422	2636.665039
-25.231383	-10.462500	1308.167969	2632.516357
-25.231383	-10.462500	1309.228516	2588.292236
-25.231383	-10.462500	1310.289063	2534.618164
-25.231383	-10.462500	1311.349609	2572.894531
-25.231383	-10.462500	1312.409180	2613.546387
-25.231383	-10.462500	1313.468750	2630.622559
-25.231383	-10.462500	1314.528320	2550.954102
-25.231383	-10.462500	1315.586914	2516.097656
-25.231383	-10.462500	1316.646484	2672.452881
-25.231383	-10.462500	1317.705078	2602.187744
-25.231383	-10.462500	1318.763672	2635.813721
-25.231383	-10.462500	1319.821289	2537.162354
-25.231383	-10.462500	1320.879883	2705.471924
-25.231383	-10.462500	1321.937500	2665.877686
-25.231383	-10.462500	1322.995117	2645.177734
-25.231383	-10.462500	1324.052734	2681.214111
-25.231383	-10.462500	1325.109375	2691.252441
-25.231383	-10.462500	1326.166992	2769.891846
-25.231383	-10.462500	1327.223633	2687.683350
-25.231383	-10.462500	1328.279297	2662.233398
-25.231383	-10.462500	1329.335938	2764.587891
-25.231383	-10.462500	1330.391602	2769.920898
-25.231383	-10.462500	1331.447266	2824.983887
-25.231383	-10.462500	1332.502930	2823.227295
-25.231383	-10.462500	1333.558594	2859.374023
-25.231383	-10.462500	1334.613281	2883.689209
-25.231383	-10.462500	1335.667969	2829.804443
-25.231383	-10.462500	1336.722656	2697.668945
-25.231383	-10.462500	1337.777344	2781.241699
-25.231383	-10.462500	1338.831055	2748.644043
-25.231383	-10.462500	1339.885742	2768.218506
-25.231383	-10.462500	1340.939453	2740.349609
-25.231383	-10.462500	1341.992188	2805.020508
-25.231383	-10.462500	1343.045898	2634.729980
-25.231383	-10.462500	1344.098633	2727.896240
-25.231383	-10.462500	1345.151367	2588.385742
-25.231383	-10.462500	1346.204102	2624.578369
-25.231383	-10.462500	1347.256836	2561.007568
-25.231383	-10.462500	1348.308594	2528.300049
-25.231383	-10.462500	1349.360352	2595.401611
-25.231383	-10.462500	1350.412109	2448.579346
-25.231383	-10.462500	1351.463867	2541.848877
-25.231383	-10.462500	1352.514648	2532.892334
-25.231383	-10.462500	1353.565430	2547.720459
-25.231383	-10.462500	1354.616211	2524.485840
-25.231383	-10.462500	1355.666992	2475.062744
-25.231383	-10.462500	1356.716797	2461.323975
-25.231383	-10.462500	1357.766602	2485.673828
-25.231383	-10.462500	1358.816406	2374.292969
-25.231383	-10.462500	1359.866211	2479.621826
-25.231383	-10.462500	1360.916016	2418.223145
-25.231383	-10.462500	1361.964844	2404.458008
-25.231383	-10.462500	1363.013672	2347.783203
-25.231383	-10.462500	1364.062500	2348.301270
-25.231383	-10.462500	1365.110352	2439.434326
-25.231383	-10.462500	1366.159180	2454.283936
-25.231383	-10.462500	1367.207031	2442.898438
-25.231383	-10.462500	1368.254883	2407.646484
-25.231383	-10.462500	1369.301758	2429.659912
-25.231383	-10.462500	1370.349609	2468.394043
-25.231383	-10.462500	1371.396484	2514.308838
-25.231383	-10.462500	1372.443359	2519.643311
-25.231383	-10.462500	1373.489258	2505.870117
-25.231383	-10.462500	1374.536133	2439.525146
-25.231383	-10.462500	1375.582031	2521.323730
-25.231383	-10.462500	1376.627930	2466.905518
-25.231383	-10.462500	1377.673828	2517.664795
-25.231383	-10.462500	1378.718750	2518.226074
-25.231383	-10.462500	1379.763672	2525.963867
-25.231383	-10.462500	1380.808594	2500.209961
-25.231383	-10.462500	1381.853516	2534.271729
-25.231383	-10.462500	1382.897461	2522.870361
-25.231383	-10.462500	1383.942383	2509.070068
-25.231383	-10.462500	1384.986328	2480.895752
-25.231383	-10.462500	1386.030273	2507.799316
-25.231383	-10.462500	1387.073242	2541.902588
-25.231383	-10.462500	1388.116211	2535.284424
-25.231383	-10.462500	1389.160156	2466.345703
-25.231383	-10.462500	1390.202148	2519.642578
-25.231383	-10.462500	1391.245117	2618.524414
-25.231383	-10.462500	1392.287109	2499.191406
-25.231383	-10.462500	1393.329102	2511.749756
-25.231383	-10.462500	1394.371094	2435.531494
-25.231383	-10.462500	1395.413086	2424.081055
-25.231383	-10.462500	1396.454102	2443.833984
-25.231383	-10.462500	1397.495117	2470.799561
-25.231383	-10.462500	1398.536133	2526.598389
-25.231383	-10.462500	1399.577148	2457.505615
-25.231383	-10.462500	1400.617188	2422.020996
-25.231383	-10.462500	1401.658203	2453.814209
-25.231383	-10.462500	1402.698242	2363.023926
-25.231383	-10.462500	1403.737305	2418.863525
-25.231383	-10.462500	1404.777344	2417.009033
-25.231383	-10.462500	1405.816406	2357.421387
-25.231383	-10.462500	1406.855469	2415.704834
-25.231383	-10.462500	1407.894531	2464.388916
-25.231383	-10.462500	1408.932617	2351.814453
-25.231383	-10.462500	1409.970703	2335.498047
-25.231383	-10.462500	1411.008789	2309.541504
-25.231383	-10.462500	1412.046875	2406.424072
-25.231383	-10.462500	1413.084961	2414.204102
-25.231383	-10.462500	1414.122070	2287.031494
-25.231383	-10.462500	1415.159180	2357.461182
-25.231383	-10.462500	1416.196289	2336.303711
-25.231383	-10.462500	1417.232422	2339.253174
-25.231383	-10.462500	1418.269531	2262.603271
-25.231383	-10.462500	1419.305664	2340.331787
-25.231383	-10.462500	1420.340820	2270.887207
-25.231383	-10.462500	1421.376953	2290.722656
-25.231383	-10.462500	1422.412109	2341.954590
-25.231383	-10.462500	1423.447266	2320.762451
-25.231383	-10.462500	1424.482422	2340.624268
-25.231383	-10.462500	1425.517578	2275.933594
-25.231383	-10.462500	1426.551758	2213.629883
-25.231383	-10.462500	1427.585938	2310.832031
-25.231383	-10.462500	1428.620117	2253.343750
-25.231383	-10.462500	1429.654297	2297.398438
-25.231383	-10.462500	1430.687500	2305.190918
-25.231383	-10.462500	1431.720703	2276.695557
-25.231383	-10.462500	1432.753906	2180.427246
-25.231383	-10.462500	1433.786133	2272.919189
-25.231383	-10.462500	1434.819336	2379.981689
-25.231383	-10.462500	1435.851563	2264.297607
-25.231383	-10.462500	1436.883789	2330.230469
-25.231383	-10.462500	1437.915039	2340.469238
-25.231383	-10.462500	1438.947266	2309.515381
-25.231383	-10.462500	1439.978516	2327.026855
-25.231383	-10.462500	1441.009766	2441.529541
-25.231383	-10.462500	1442.040039	2507.584229
-25.231383	-10.462500	1443.071289	2537.284912
-25.231383	-10.462500	1444.101563	2457.817627
-25.231383	-10.462500	1445.131836	2531.205078
-25.231383	-10.462500	1446.161133	2543.942139
-25.231383	-10.462500	1447.191406	2593.105713
-25.231383	-10.462500	1448.220703	2635.007324
-25.231383	-10.462500	1449.250000	2647.779785
-25.231383	-10.462500	1450.278320	2658.128906
-25.231383	-10.462500	1451.307617	2661.192871
-25.231383	-10.462500	1452.335938	2569.453857
-25.231383	-10.462500	1453.364258	2660.032227
-25.231383	-10.462500	1454.391602	2560.954102
-25.231383	-10.462500	1455.419922	2581.028320
-25.231383	-10.462500	1456.447266	2494.051025
-25.231383	-10.462500	1457.473633	2489.781982
-25.231383	-10.462500	1458.500977	2466.036377
-25.231383	-10.462500	1459.527344	2500.719238
-25.231383	-10.462500	1460.554688	2435.561279
-25.231383	-10.462500	1461.580078	2380.117188
-25.231383	-10.462500	1462.606445	2402.622314
-25.231383	-10.462500	1463.631836	2364.205811
-25.231383	-10.462500	1464.657227	2423.287842
-25.231383	-10.462500	1465.682617	2379.981934
-25.231383	-10.462500	1466.708008	2387.876709
-25.231383	-10.462500	1467.732422	2393.335938
-25.231383	-10.462500	1468.756836	2335.351074
-25.231383	-10.462500	1469.781250	2418.909668
-25.231383	-10.462500	1470.804688	2290.101318
-25.231383	-10.462500	1471.829102	2268.681641
-25.231383	-10.462500	1472.852539	2310.761230
-25.231383	-10.462500	1473.875977	2335.759277
-25.231383	-10.462500	1474.898438	2253.240234
-25.231383	-10.462500	1475.920898	2241.570801
-25.231383	-10.462500	1476.943359	2195.665283
-25.231383	-10.462500	1477.965820	2215.770508
-25.231383	-10.462500	1478.988281	2208.977295
-25.231383	-10.462500	1480.009766	2180.159668
-25.231383	-10.462500	1481.031250	2170.907959
-25.231383	-10.462500	1482.052734	2127.379150
-25.231383	-10.462500	1483.073242	2179.328125
-25.231383	-10.462500	1484.093750	2062.302246
-25.231383	-10.462500	1485.114258	2023.615723
-25.231383	-10.462500	1486.134766	2021.668091
-25.231383	-10.462500	1487.154297	2031.975586
-25.231383	-10.462500	1488.173828	2049.644043
-25.231383	-10.462500	1489.193359	1944.704712
-25.231383	-10.462500	1490.212891	2033.496826
-25.231383	-10.462500	1491.231445	1967.759277
-25.231383	-10.462500	1492.250000	2029.606689
-25.231383	-10.462500	1493.268555	2025.206177
-25.231383	-10.462500	1494.287109	2018.348633
-25.231383	-10.462500	1495.304688	1969.735596
-25.231383	-10.462500	1496.322266	1945.665283
-25.231383	-10.462500	1497.339844	1931.412354
-25.231383	-10.462500	1498.357422	1988.431519
-25.231383	-10.462500	1499.374023	2008.602417
-25.231383	-10.462500	1500.390625	1994.356323
-25.231383	-10.462500	1501.407227	1906.310913
-25.231383	-10.462500	1502.422852	1882.191162
-25.231383	-10.462500	1503.438477	1981.110107
-25.231383	-10.462500	1504.454102	2011.154175
-25.231383	-10.462500	1505.469727	1915.638916
-25.231383	-10.462500	1506.484375	1916.128174
-25.231383	-10.462500	1507.500000	1936.326294
-25.231383	-10.462500	1508.514648	1956.535400
-25.231383	-10.462500	1509.528320	1885.558594
-25.231383	-10.462500	1510.542969	1849.061646
-25.231383	-10.462500	1511.556641	1930.916870
-25.231383	-10.462500	1512.569336	1874.680542
-25.231383	-10.462500	1513.583008	1931.912476
-25.231383	-10.462500	1514.595703	1917.603760
-25.231383	-10.462500	1515.608398	1913.162720
-25.231383	-10.462500	1516.621094	1916.127563
-25.231383	-10.462500	1517.633789	1763.492432
-25.231383	-10.462500	1518.645508	1885.006104
-25.231383	-10.462500	1519.657227	1868.198486
-25.231383	-10.462500	1520.667969	1873.629028
-25.231383	-10.462500	1521.679688	1819.724121
-25.231383	-10.462500	1522.690430	1837.511475
-25.231383	-10.462500	1523.701172	1783.570068
-25.231383	-10.462500	1524.710938	1808.781738
-25.231383	-10.462500	1525.721680	1774.606079
-25.231383	-10.462500	1526.731445	1804.781006
-25.231383	-10.462500	1527.741211	1834.972534
-25.231383	-10.462500	1528.750000	1736.376587
-25.231383	-10.462500	1529.758789	1776.477783
-25.231383	-10.462500	1530.767578	1853.775391
-25.231383	-10.462500	1531.776367	1822.040039
-25.231383	-10.462500	1532.784180	1822.523560
-25.231383	-10.462500	1533.792969	1751.079834
-25.231383	-10.462500	1534.799805	1830.936157
-25.231383	-10.462500	1535.807617	1801.645142
-25.231383	-10.462500	1536.814453	1799.643921
-25.231383	-10.462500	1537.821289	1810.057007
-25.231383	-10.462500	1538.828125	1733.550415
-25.231383	-10.462500	1539.834961	1756.373901
-25.231383	-10.462500	1540.840820	1727.026733
-25.231383	-10.462500	1541.846680	1774.717896
-25.231383	-10.462500	1542.851563	1757.792480
-25.231383	-10.462500	1543.857422	1713.502197
-25.231383	-10.462500	1544.862305	1726.403687
-25.231383	-10.462500	1545.867188	1692.035278
